time,frequency,confidence
0.000,263.799,0.191799
0.010,280.126,0.164504
0.020,298.119,0.074385
0.030,315.988,0.058701
0.040,343.945,0.274503
0.050,355.187,0.277782
0.060,348.949,0.164549
0.070,333.533,0.075227
0.080,306.244,0.228957
0.090,304.544,0.385076
0.100,308.503,0.357503
0.110,308.258,0.398683
0.120,306.867,0.358938
0.130,342.033,0.226665
0.140,388.934,0.193589
0.150,437.277,0.161542
0.160,489.262,0.097529
0.170,551.021,0.049923
0.180,626.611,0.076448
0.190,709.538,0.154058
0.200,761.049,0.195820
0.210,872.288,0.248708
0.220,974.691,0.230379
0.230,1061.695,0.487835
0.240,1055.624,0.817714
0.250,1055.105,0.863196
0.260,1052.799,0.890783
0.270,1051.602,0.910066
0.280,1050.503,0.926794
0.290,1050.478,0.935362
0.300,1050.615,0.941691
0.310,1050.314,0.946312
0.320,1049.249,0.951335
0.330,1047.964,0.954294
0.340,1046.820,0.955106
0.350,1045.319,0.955884
0.360,1044.756,0.957045
0.370,1044.711,0.958251
0.380,1045.160,0.959326
0.390,1045.517,0.960386
0.400,1045.802,0.961078
0.410,1046.135,0.960935
0.420,1046.496,0.961133
0.430,1046.862,0.960184
0.440,1046.787,0.960928
0.450,1046.749,0.960428
0.460,1046.614,0.961353
0.470,1046.507,0.960763
0.480,1046.343,0.961021
0.490,1046.293,0.960812
0.500,1046.359,0.961237
0.510,1046.344,0.961661
0.520,1046.126,0.962568
0.530,1045.994,0.962969
0.540,1045.923,0.962872
0.550,1045.965,0.962142
0.560,1046.179,0.961510
0.570,1046.838,0.960314
0.580,1047.134,0.959689
0.590,1047.353,0.958987
0.600,1047.306,0.958305
0.610,1047.246,0.959221
0.620,1046.774,0.959361
0.630,1046.516,0.960788
0.640,1046.300,0.960308
0.650,1046.212,0.960297
0.660,1046.172,0.961575
0.670,1046.532,0.961415
0.680,1047.138,0.961826
0.690,1048.093,0.957294
0.700,1048.019,0.956987
0.710,1047.517,0.956767
0.720,1046.894,0.959653
0.730,1046.616,0.959370
0.740,1045.881,0.959039
0.750,1045.489,0.958132
0.760,1044.904,0.957596
0.770,1044.671,0.958546
0.780,1044.729,0.957956
0.790,1044.726,0.958283
0.800,1044.665,0.957109
0.810,1044.537,0.957449
0.820,1044.450,0.956604
0.830,1044.217,0.957444
0.840,1043.981,0.955554
0.850,1043.924,0.955828
0.860,1043.786,0.954892
0.870,1043.688,0.954558
0.880,1043.792,0.956216
0.890,1044.019,0.956683
0.900,1044.464,0.959681
0.910,1044.892,0.960182
0.920,1045.590,0.960296
0.930,1046.182,0.960240
0.940,1046.687,0.960069
0.950,1046.711,0.960889
0.960,1046.627,0.960324
0.970,1046.374,0.960191
0.980,1046.343,0.959813
0.990,1046.242,0.959610
1.000,1046.291,0.959588
1.010,1046.074,0.960658
1.020,1046.206,0.961053
1.030,1046.285,0.961326
1.040,1046.467,0.961226
1.050,1046.432,0.960706
1.060,1046.579,0.960261
1.070,1046.282,0.960044
1.080,1046.052,0.960144
1.090,1045.758,0.960231
1.100,1045.502,0.960400
1.110,1045.432,0.960066
1.120,1045.564,0.960216
1.130,1045.943,0.961717
1.140,1046.199,0.962057
1.150,1046.403,0.962637
1.160,1046.664,0.962219
1.170,1046.950,0.962668
1.180,1047.216,0.961948
1.190,1047.253,0.962983
1.200,1047.731,0.961163
1.210,1047.884,0.961983
1.220,1048.098,0.959781
1.230,1047.939,0.960861
1.240,1048.528,0.958790
1.250,1048.221,0.958877
1.260,1047.748,0.958458
1.270,1046.755,0.960703
1.280,1046.338,0.960119
1.290,1046.129,0.961491
1.300,1046.375,0.961114
1.310,1046.529,0.961131
1.320,1047.025,0.960672
1.330,1047.184,0.961657
1.340,1047.596,0.961270
1.350,1047.958,0.961784
1.360,1048.655,0.959027
1.370,1049.250,0.955024
1.380,1050.090,0.950201
1.390,1050.628,0.945992
1.400,1051.090,0.945433
1.410,1051.659,0.940710
1.420,1052.027,0.937986
1.430,1052.410,0.934715
1.440,1052.170,0.938903
1.450,1052.078,0.937625
1.460,1048.074,0.937682
1.470,1039.375,0.748978
1.480,977.396,0.850399
1.490,975.264,0.927329
1.500,975.196,0.930360
1.510,974.785,0.930879
1.520,974.869,0.932041
1.530,975.156,0.935026
1.540,974.963,0.935189
1.550,974.598,0.894370
1.560,1060.743,0.719393
1.570,1164.811,0.598825
1.580,1181.402,0.797667
1.590,1202.677,0.659386
1.600,1225.574,0.618446
1.610,1147.647,0.565915
1.620,1078.592,0.311882
1.630,1068.196,0.507289
1.640,1061.748,0.733240
1.650,1056.307,0.856056
1.660,1054.759,0.897723
1.670,1052.929,0.928475
1.680,1051.465,0.940912
1.690,1050.492,0.946901
1.700,1049.773,0.948204
1.710,1048.723,0.954194
1.720,1047.968,0.956454
1.730,1046.941,0.959684
1.740,1046.456,0.959828
1.750,1045.930,0.961974
1.760,1045.917,0.961279
1.770,1045.867,0.962896
1.780,1046.340,0.961206
1.790,1046.491,0.962486
1.800,1047.500,0.960149
1.810,1049.412,0.946727
1.820,1055.045,0.900956
1.830,1062.557,0.884062
1.840,1070.221,0.841089
1.850,1075.339,0.864287
1.860,1080.107,0.846177
1.870,1082.577,0.856339
1.880,1082.436,0.842183
1.890,1080.619,0.828412
1.900,1076.980,0.847409
1.910,1071.059,0.866473
1.920,1066.071,0.883086
1.930,1060.417,0.907283
1.940,1056.690,0.896658
1.950,1055.079,0.911484
1.960,1053.559,0.926882
1.970,1052.752,0.934610
1.980,1051.841,0.942652
1.990,1051.380,0.945678
2.000,1050.613,0.948422
2.010,1050.243,0.950811
2.020,1050.882,0.948641
2.030,1051.886,0.941189
2.040,1054.156,0.919887
2.050,1055.669,0.902337
2.060,1057.808,0.898551
2.070,1059.747,0.899072
2.080,1062.131,0.903811
2.090,1064.436,0.898010
2.100,1067.288,0.877383
2.110,1069.487,0.862899
2.120,1071.326,0.875050
2.130,1072.254,0.875683
2.140,1072.072,0.880419
2.150,1071.134,0.865766
2.160,1068.633,0.849985
2.170,1065.814,0.880694
2.180,1062.078,0.899388
2.190,1058.044,0.897004
2.200,1054.853,0.906897
2.210,1052.114,0.932363
2.220,1050.143,0.946261
2.230,1048.448,0.953403
2.240,1046.418,0.957105
2.250,1044.698,0.956332
2.260,1043.474,0.953694
2.270,1042.913,0.951436
2.280,1042.801,0.949204
2.290,1042.857,0.951169
2.300,1042.962,0.950662
2.310,1043.054,0.951478
2.320,1043.464,0.953118
2.330,1044.110,0.957948
2.340,1045.191,0.961763
2.350,1047.928,0.948970
2.360,1054.901,0.898771
2.370,1060.901,0.894315
2.380,1062.881,0.902160
2.390,1063.909,0.897456
2.400,1064.678,0.897342
2.410,1064.402,0.892051
2.420,1063.872,0.901971
2.430,1062.254,0.907603
2.440,1058.596,0.910105
2.450,1055.346,0.906208
2.460,1052.589,0.930560
2.470,1050.329,0.946094
2.480,1048.618,0.952355
2.490,1047.019,0.957922
2.500,1045.854,0.957144
2.510,1044.537,0.958497
2.520,1043.825,0.957915
2.530,1043.664,0.956606
2.540,1043.876,0.957103
2.550,1045.336,0.960348
2.560,1047.733,0.957855
2.570,1050.758,0.943826
2.580,1054.125,0.915975
2.590,1056.388,0.893161
2.600,1058.460,0.899125
2.610,1059.946,0.899733
2.620,1061.249,0.904955
2.630,1062.551,0.906361
2.640,1062.865,0.906087
2.650,1061.867,0.909051
2.660,1060.525,0.907061
2.670,1058.646,0.904867
2.680,1056.361,0.901435
2.690,1054.379,0.922996
2.700,1052.856,0.932476
2.710,1051.342,0.939304
2.720,1049.260,0.948581
2.730,1047.040,0.956263
2.740,1045.095,0.956861
2.750,1042.989,0.950115
2.760,1041.196,0.944308
2.770,1040.417,0.943282
2.780,1039.764,0.943470
2.790,1039.432,0.944619
2.800,1040.243,0.947619
2.810,1041.601,0.945272
2.820,1045.300,0.952862
2.830,1051.514,0.931316
2.840,1058.552,0.888756
2.850,1061.988,0.904413
2.860,1063.957,0.905880
2.870,1066.020,0.891428
2.880,1066.084,0.886530
2.890,1065.424,0.894878
2.900,1061.788,0.905190
2.910,1056.644,0.892159
2.920,1053.154,0.925435
2.930,1050.306,0.944695
2.940,1048.136,0.955519
2.950,1046.667,0.960768
2.960,1046.319,0.960941
2.970,1046.290,0.960250
2.980,1046.545,0.959967
2.990,1046.792,0.960458
3.000,1047.703,0.959913
3.010,1048.442,0.958999
3.020,1049.152,0.954104
3.030,1049.978,0.951328
3.040,1051.498,0.942902
3.050,1052.146,0.938219
3.060,1053.161,0.931358
3.070,1054.503,0.915250
3.080,1055.155,0.906185
3.090,1055.044,0.918308
3.100,1050.569,0.937406
3.110,1039.541,0.782839
3.120,981.009,0.817919
3.130,977.454,0.927163
3.140,976.103,0.923818
3.150,975.760,0.921358
3.160,976.164,0.921809
3.170,976.477,0.923642
3.180,976.634,0.922096
3.190,976.121,0.921820
3.200,976.409,0.928106
3.210,975.142,0.904350
3.220,1044.016,0.836949
3.230,1174.802,0.786020
3.240,1181.305,0.899540
3.250,1179.239,0.753734
3.260,1063.870,0.414790
3.270,1064.431,0.763015
3.280,1057.538,0.874115
3.290,1053.197,0.930153
3.300,1052.937,0.931184
3.310,1053.049,0.927724
3.320,1053.077,0.930037
3.330,1052.624,0.931753
3.340,1051.371,0.941596
3.350,1050.244,0.946191
3.360,1049.030,0.950447
3.370,1047.507,0.953755
3.380,1046.419,0.956653
3.390,1045.722,0.958920
3.400,1044.581,0.956190
3.410,1043.844,0.955720
3.420,1043.608,0.953913
3.430,1043.601,0.955953
3.440,1043.796,0.955903
3.450,1044.156,0.958169
3.460,1045.064,0.960480
3.470,1046.066,0.959656
3.480,1048.859,0.943892
3.490,1055.370,0.886502
3.500,1061.993,0.896052
3.510,1063.934,0.894151
3.520,1065.887,0.886840
3.530,1066.708,0.877532
3.540,1067.707,0.859947
3.550,1066.914,0.871326
3.560,1066.013,0.879206
3.570,1063.952,0.887206
3.580,1062.063,0.895709
3.590,1059.092,0.893742
3.600,1056.249,0.884099
3.610,1053.670,0.916413
3.620,1051.446,0.932591
3.630,1049.060,0.947880
3.640,1046.547,0.956904
3.650,1044.571,0.956122
3.660,1043.473,0.952128
3.670,1043.047,0.948463
3.680,1042.844,0.948342
3.690,1042.724,0.946796
3.700,1042.960,0.950138
3.710,1043.468,0.952754
3.720,1044.335,0.959750
3.730,1046.904,0.953190
3.740,1054.448,0.894595
3.750,1063.435,0.880890
3.760,1068.289,0.854576
3.770,1072.358,0.868942
3.780,1075.198,0.866593
3.790,1075.983,0.853177
3.800,1074.661,0.861688
3.810,1072.489,0.850579
3.820,1067.199,0.861075
3.830,1061.930,0.889072
3.840,1056.773,0.885122
3.850,1053.482,0.919830
3.860,1050.878,0.943622
3.870,1048.805,0.949930
3.880,1047.712,0.956497
3.890,1046.478,0.959697
3.900,1045.093,0.959563
3.910,1044.058,0.957282
3.920,1043.193,0.951626
3.930,1042.641,0.946869
3.940,1042.652,0.947315
3.950,1043.208,0.951129
3.960,1044.074,0.957668
3.970,1046.037,0.957418
3.980,1050.783,0.931853
3.990,1058.363,0.882423
4.000,1062.714,0.898392
4.010,1065.810,0.887183
4.020,1068.786,0.862123
4.030,1071.609,0.870874
4.040,1072.222,0.856660
4.050,1073.126,0.857318
4.060,1072.754,0.843679
4.070,1071.385,0.848132
4.080,1068.785,0.844921
4.090,1064.771,0.880575
4.100,1061.817,0.884824
4.110,1059.271,0.892945
4.120,1056.114,0.881556
4.130,1053.662,0.917772
4.140,1052.166,0.934161
4.150,1051.118,0.939784
4.160,1050.056,0.948053
4.170,1048.853,0.953654
4.180,1047.321,0.957546
4.190,1046.343,0.958250
4.200,1045.787,0.959259
4.210,1046.195,0.960505
4.220,1047.311,0.959912
4.230,1049.805,0.948508
4.240,1052.637,0.927163
4.250,1055.503,0.899907
4.260,1058.366,0.890015
4.270,1061.251,0.902126
4.280,1063.263,0.902449
4.290,1064.949,0.894108
4.300,1065.426,0.886433
4.310,1065.721,0.883528
4.320,1064.735,0.891727
4.330,1063.473,0.892197
4.340,1061.293,0.894053
4.350,1057.647,0.890124
4.360,1054.426,0.905792
4.370,1051.386,0.932584
4.380,1048.474,0.947306
4.390,1045.543,0.953212
4.400,1042.288,0.941985
4.410,1040.553,0.942321
4.420,1039.862,0.941855
4.430,1039.114,0.944149
4.440,1038.684,0.944153
4.450,1038.265,0.949142
4.460,1038.432,0.947300
4.470,1038.332,0.945660
4.480,1038.796,0.951476
4.490,1040.824,0.946570
4.500,1045.099,0.953638
4.510,1050.410,0.940681
4.520,1053.495,0.919154
4.530,1055.114,0.898133
4.540,1056.955,0.886033
4.550,1057.517,0.893229
4.560,1058.094,0.892258
4.570,1057.595,0.887684
4.580,1057.186,0.887839
4.590,1055.195,0.897263
4.600,1052.510,0.919356
4.610,1049.385,0.940389
4.620,1046.559,0.953297
4.630,1044.096,0.952722
4.640,1041.493,0.939074
4.650,1040.348,0.941887
4.660,1039.793,0.941082
4.670,1039.554,0.943186
4.680,1039.654,0.944866
4.690,1039.647,0.949713
4.700,1040.539,0.948223
4.710,1042.532,0.945237
4.720,1046.910,0.951406
4.730,1053.949,0.908756
4.740,1059.450,0.899115
4.750,1061.183,0.897576
4.760,1063.090,0.905023
4.770,1063.705,0.902500
4.780,1062.971,0.901501
4.790,1060.406,0.904764
4.800,1056.968,0.890301
4.810,1053.026,0.919715
4.820,1050.353,0.944704
4.830,1048.589,0.954225
4.840,1047.021,0.958343
4.850,1045.922,0.959395
4.860,1045.278,0.960629
4.870,1045.670,0.962265
4.880,1047.128,0.960947
4.890,1050.260,0.946065
4.900,1053.816,0.913504
4.910,1058.083,0.889489
4.920,1060.765,0.899821
4.930,1063.158,0.903285
4.940,1065.004,0.898058
4.950,1065.916,0.890414
4.960,1062.090,0.884580
4.970,1043.558,0.815825
4.980,985.557,0.740338
4.990,975.373,0.924918
5.000,973.378,0.929844
5.010,970.268,0.950668
5.020,968.540,0.952416
5.030,967.199,0.948881
5.040,966.889,0.946898
5.050,967.350,0.942704
5.060,967.909,0.952976
5.070,966.551,0.937392
5.080,1058.801,0.804772
5.090,1170.021,0.569702
5.100,1180.010,0.882740
5.110,1182.815,0.887731
5.120,1178.321,0.851481
5.130,1163.767,0.400276
5.140,1066.874,0.769783
5.150,1057.265,0.861830
5.160,1049.926,0.946066
5.170,1048.654,0.953575
5.180,1047.967,0.957924
5.190,1047.417,0.959479
5.200,1047.085,0.959561
5.210,1046.394,0.958684
5.220,1045.796,0.958464
5.230,1045.608,0.959000
5.240,1045.392,0.958894
5.250,1044.930,0.958205
5.260,1044.360,0.956603
5.270,1044.063,0.956441
5.280,1043.563,0.956005
5.290,1042.844,0.952759
5.300,1042.795,0.952149
5.310,1043.561,0.956765
5.320,1045.714,0.957123
5.330,1051.535,0.924654
5.340,1059.975,0.887027
5.350,1062.137,0.901476
5.360,1063.596,0.896212
5.370,1064.130,0.897194
5.380,1064.017,0.895567
5.390,1061.940,0.896959
5.400,1058.625,0.891172
5.410,1055.178,0.886998
5.420,1051.495,0.928194
5.430,1048.700,0.947258
5.440,1047.013,0.955150
5.450,1045.356,0.957844
5.460,1043.334,0.951312
5.470,1041.402,0.940669
5.480,1040.409,0.941141
5.490,1039.695,0.945272
5.500,1039.476,0.942410
5.510,1039.368,0.942538
5.520,1039.472,0.945886
5.530,1039.873,0.947609
5.540,1040.211,0.949491
5.550,1040.706,0.945792
5.560,1041.871,0.944533
5.570,1045.286,0.954814
5.580,1051.765,0.924219
5.590,1058.894,0.890126
5.600,1060.926,0.900643
5.610,1063.479,0.899528
5.620,1064.377,0.898112
5.630,1064.823,0.896744
5.640,1063.225,0.894853
5.650,1059.070,0.894743
5.660,1054.709,0.895731
5.670,1050.380,0.935550
5.680,1047.091,0.953455
5.690,1045.072,0.958275
5.700,1044.110,0.956665
5.710,1043.890,0.956289
5.720,1044.164,0.958055
5.730,1044.846,0.959464
5.740,1045.133,0.960090
5.750,1045.702,0.960125
5.760,1048.962,0.943224
5.770,1057.163,0.864260
5.780,1066.661,0.850810
5.790,1073.288,0.868612
5.800,1077.530,0.851618
5.810,1080.824,0.823682
5.820,1069.897,0.447996
5.830,1001.146,0.702977
5.840,988.838,0.913066
5.850,981.201,0.926216
5.860,975.756,0.915079
5.870,970.933,0.946842
5.880,967.229,0.952884
5.890,965.459,0.950053
5.900,964.951,0.929867
5.910,962.196,0.798862
5.920,1068.084,0.218281
5.930,1164.125,0.787229
5.940,1176.209,0.928192
5.950,1177.108,0.902445
5.960,1168.511,0.733863
5.970,1064.795,0.714026
5.980,1055.337,0.876977
5.990,1050.242,0.944725
6.000,1048.874,0.956566
6.010,1048.702,0.957132
6.020,1048.583,0.957741
6.030,1047.872,0.958346
6.040,1047.190,0.958685
6.050,1046.320,0.958320
6.060,1045.507,0.958094
6.070,1045.024,0.958781
6.080,1044.424,0.958287
6.090,1043.780,0.956655
6.100,1043.433,0.954710
6.110,1043.082,0.952515
6.120,1042.806,0.951065
6.130,1042.824,0.950217
6.140,1043.143,0.954687
6.150,1044.139,0.957900
6.160,1046.805,0.953114
6.170,1053.557,0.908644
6.180,1060.386,0.894276
6.190,1062.436,0.899721
6.200,1065.662,0.886284
6.210,1066.623,0.876117
6.220,1067.542,0.872111
6.230,1066.003,0.874940
6.240,1064.170,0.888560
6.250,1061.427,0.897556
6.260,1058.368,0.892227
6.270,1056.483,0.881678
6.280,1053.980,0.910921
6.290,1051.321,0.934208
6.300,1047.809,0.950872
6.310,1045.350,0.953301
6.320,1043.828,0.953642
6.330,1043.049,0.949978
6.340,1042.500,0.947077
6.350,1042.099,0.938259
6.360,1041.619,0.940140
6.370,1041.353,0.939012
6.380,1041.213,0.941335
6.390,1041.497,0.943040
6.400,1041.855,0.941261
6.410,1042.311,0.947360
6.420,1044.647,0.954204
6.430,1049.893,0.936997
6.440,1057.258,0.876416
6.450,1061.345,0.901349
6.460,1063.802,0.903024
6.470,1067.194,0.878688
6.480,1069.352,0.875057
6.490,1070.807,0.885032
6.500,1069.816,0.868550
6.510,1067.712,0.859399
6.520,1063.850,0.892771
6.530,1058.811,0.895610
6.540,1051.917,0.919283
6.550,1047.201,0.949125
6.560,1045.282,0.957289
6.570,1044.634,0.956973
6.580,1043.984,0.956088
6.590,1043.793,0.957122
6.600,1044.302,0.959705
6.610,1044.975,0.960076
6.620,1045.524,0.960629
6.630,1046.095,0.961058
6.640,1046.358,0.960842
6.650,1048.547,0.947821
6.660,1050.471,0.929410
6.670,1051.616,0.644754
6.680,1166.953,0.821767
6.690,1174.316,0.940958
6.700,1177.473,0.954979
6.710,1177.467,0.958205
6.720,1176.747,0.960869
6.730,1176.716,0.959827
6.740,1176.916,0.961523
6.750,1176.150,0.961890
6.760,1173.578,0.954452
6.770,1171.036,0.936495
6.780,1169.592,0.935856
6.790,1169.461,0.927872
6.800,1169.679,0.926102
6.810,1169.275,0.836673
6.820,1116.220,0.787372
6.830,974.952,0.461825
6.840,969.206,0.823149
6.850,967.941,0.922206
6.860,967.807,0.952850
6.870,967.617,0.949721
6.880,967.587,0.950371
6.890,966.522,0.947875
6.900,966.055,0.943279
6.910,965.855,0.943436
6.920,964.987,0.938601
6.930,964.881,0.938904
6.940,964.798,0.943814
6.950,963.357,0.929819
6.960,962.886,0.875814
6.970,984.961,0.369456
6.980,1039.198,0.754346
6.990,1042.540,0.917142
7.000,1042.931,0.945835
7.010,1043.008,0.949196
7.020,1042.673,0.948319
7.030,1042.376,0.944724
7.040,1042.578,0.945228
7.050,1042.881,0.947439
7.060,1042.875,0.948992
7.070,1043.077,0.954132
7.080,1044.211,0.956977
7.090,1047.425,0.954209
7.100,1051.833,0.936533
7.110,1055.527,0.802479
7.120,1167.533,0.810598
7.130,1173.861,0.935854
7.140,1177.838,0.955349
7.150,1181.628,0.950634
7.160,1185.853,0.919199
7.170,1189.009,0.915153
7.180,1190.855,0.909360
7.190,1192.037,0.908290
7.200,1191.790,0.909368
7.210,1191.045,0.907714
7.220,1190.146,0.906963
7.230,1189.063,0.910359
7.240,1187.497,0.903361
7.250,1186.338,0.906072
7.260,1184.675,0.922554
7.270,1182.041,0.942798
7.280,1179.770,0.952183
7.290,1177.826,0.955998
7.300,1176.444,0.959506
7.310,1175.827,0.960542
7.320,1175.480,0.962121
7.330,1174.965,0.964225
7.340,1174.367,0.962230
7.350,1174.285,0.959875
7.360,1174.595,0.958315
7.370,1174.484,0.960091
7.380,1174.576,0.959209
7.390,1177.870,0.959497
7.400,1183.511,0.939602
7.410,1188.106,0.920020
7.420,1190.024,0.913024
7.430,1192.139,0.910033
7.440,1193.963,0.907628
7.450,1195.088,0.906097
7.460,1195.810,0.901376
7.470,1195.880,0.898176
7.480,1195.441,0.898178
7.490,1193.521,0.902395
7.500,1191.704,0.907934
7.510,1190.439,0.908135
7.520,1189.580,0.906030
7.530,1188.947,0.907729
7.540,1188.201,0.907629
7.550,1187.503,0.901977
7.560,1187.284,0.903989
7.570,1186.547,0.899229
7.580,1185.799,0.911475
7.590,1184.532,0.925653
7.600,1183.459,0.935846
7.610,1182.497,0.942686
7.620,1181.626,0.946576
7.630,1180.704,0.949051
7.640,1179.946,0.951894
7.650,1179.852,0.954482
7.660,1179.910,0.953407
7.670,1180.156,0.954320
7.680,1180.840,0.953823
7.690,1182.004,0.947172
7.700,1183.218,0.939857
7.710,1184.831,0.927802
7.720,1187.367,0.905880
7.730,1189.884,0.913047
7.740,1192.713,0.907555
7.750,1195.268,0.896659
7.760,1197.328,0.886755
7.770,1198.451,0.880127
7.780,1198.986,0.876849
7.790,1198.697,0.874240
7.800,1197.318,0.880372
7.810,1195.271,0.893575
7.820,1193.587,0.902796
7.830,1191.967,0.904936
7.840,1190.152,0.904550
7.850,1188.948,0.907509
7.860,1188.006,0.909338
7.870,1186.741,0.901196
7.880,1186.095,0.907702
7.890,1185.197,0.916043
7.900,1184.996,0.922268
7.910,1184.452,0.925461
7.920,1184.069,0.929248
7.930,1183.270,0.935415
7.940,1182.231,0.941514
7.950,1180.641,0.949339
7.960,1179.168,0.955421
7.970,1177.712,0.959855
7.980,1176.762,0.960745
7.990,1176.833,0.961783
8.000,1177.903,0.959413
8.010,1179.026,0.957434
8.020,1180.831,0.951688
8.030,1183.541,0.937000
8.040,1185.533,0.919167
8.050,1187.302,0.909346
8.060,1189.102,0.910652
8.070,1191.351,0.907331
8.080,1192.487,0.908490
8.090,1192.818,0.909350
8.100,1192.846,0.909613
8.110,1192.523,0.908967
8.120,1191.949,0.907453
8.130,1190.989,0.908524
8.140,1189.990,0.911308
8.150,1189.028,0.905767
8.160,1188.350,0.906126
8.170,1187.072,0.901596
8.180,1185.118,0.913310
8.190,1183.674,0.931879
8.200,1182.702,0.938395
8.210,1181.181,0.945539
8.220,1179.501,0.953718
8.230,1178.784,0.957065
8.240,1177.974,0.959044
8.250,1176.716,0.960605
8.260,1175.726,0.962767
8.270,1175.323,0.963171
8.280,1176.217,0.961559
8.290,1177.506,0.961194
8.300,1179.109,0.958271
8.310,1181.510,0.948713
8.320,1184.367,0.932890
8.330,1186.904,0.911951
8.340,1189.444,0.915006
